"??ltimo: Tiempo (s)","??ltimo: Angulo (rad)","??ltimo: Velocidad (rad/s)","??ltimo: Aceleraci??n (rad/s??)"
0,0,0,0.853272078753
0.05,0,0.0290888208666,1.23142675002
0.1,0,0.0814486984264,1.7905785289
0.15,0,0.261799387799,1.4565957708
0.2,0.0349065850399,0.290888208666,0.00430945494309
0.25,0.0349065850399,0.213318019688,-0.680893881025
0.3,0.0523598775598,0.184229198822,-0.791862345812
0.35,0.0523598775598,0.164836651577,-1.70223470256
0.4,0.0698131700798,0.106659009844,-5.02051500882
0.45,0.0698131700798,-0.174532925199,-12.1418893025
0.5,0.0698131700798,-0.911449720486,-23.1956412318
0.55,0.0174532925199,-2.48224604728,-34.3948372654
0.6,-0.157079632679,-4.56694487605,-41.2468706251
0.65,-0.436332312999,-6.79708780916,-43.848704047
0.7,-0.837758040957,-9.03692701588,-44.134205437
0.75,-1.34390352404,-11.2088923073,-43.983374514
0.8,-1.95476876223,-13.4293389667,-43.8379304097
0.85,-2.68780704807,-15.630393079,-43.1430308001
0.9,-3.52556508903,-17.7053956341,-43.110709888
0.95,-4.45058959259,-19.9064497464,-43.6601653933
1,-5.5152404363,-22.1172001322,-43.5524290197
1.05,-6.66715774262,-24.2600766027,-43.5901367504
1.1,-7.94124809657,-26.4223456205,-44.3981595523
1.15,-9.30260491313,-28.6912736481,-44.7105950357
1.2,-10.8035880698,-31.0668606855,-39.7924295817
1.25,-12.4267442742,-33.0933818725,-20.8038937383
1.3,-14.1197136486,-34.2957198017,28.1730616911
1.35,-15.9348560707,-32.6473532859,123.417402754
1.4,-17.7674517853,-22.9413833901,231.627816378
1.45,-18.5703032412,-6.37045176978,274.253712585
1.5,-18.3085038534,8.72664625997,226.925123671
1.55,-17.4358392274,18.2774757778,131.648461696
1.6,-16.214108751,21.5742088094,38.1925444341
1.65,-15.0970980298,20.4397447956,-21.1163292217
1.7,-14.1371669412,17.9671950219,-46.2189042658
1.75,-13.2994089002,15.194060766,-53.6796481362
1.8,-12.6187304919,12.4306227836,-54.8701350642
1.85,-12.0602251313,9.72536244306,-55.495006031
1.9,-11.6413461108,6.92313936624,-56.5723697668
1.95,-11.3620934305,4.02395355321,-56.6477852283
2,-11.2399203828,1.15385656104,-54.606180949
2.05,-11.2573736754,-1.49322613782,-51.3040610987
2.1,-11.3970000155,-3.95607963785,-48.2820558198
2.15,-11.6587994033,-6.27348903356,-46.2081306284
2.2,-12.0253185462,-8.54241706115,-44.9206809641
2.25,-12.5140107368,-10.7725599943,-43.5901367504
2.3,-13.1074226825,-12.9057401911,-41.6454952073
2.35,-13.8055543833,-15.0098315672,-36.0432037812
2.4,-14.6084058392,-16.939390018,-17.7765016407
2.45,-15.5159770502,-17.9090173802,25.0487068573
2.5,-16.5282680164,-15.7079632679,90.1591842303
2.55,-17.3485727648,-8.27092139973,139.265423308
2.6,-17.4358392274,0.882360899619,133.474593228
2.65,-17.1042266695,7.06858347058,83.5603313486
2.7,-16.5631746014,9.49265187612,23.8689935666
2.75,-16.0221225333,8.68786116548,-21.1971315018
2.8,-15.6381500979,6.33166667529,-43.412371734
2.85,-15.3938040026,3.77185043903,-50.7761528682
2.9,-15.2541776624,1.06659009844,-51.5626283953
2.95,-15.2890842475,-1.55140377955,-47.7972421387
3,-15.4287105876,-3.8009392599,-40.5896787462
3.05,-15.6730566829,-5.81776417331,-26.4115719831
3.1,-16.0221225333,-7.12676111231,1.95541518048
3.15,-16.4759081388,-6.31227412805,40.5950655649
3.2,-16.8249739892,-2.25923175397,60.6609651442
3.25,-16.7028009416,1.79381062011,40.4711687353
3.3,-16.4759081388,2.62769015161,2.21398247707
3.35,-16.3362817987,1.15385656104,-20.6692232713
3.4,-16.3537350912,-0.659346606309,-18.4606276129
3.45,-16.4584548463,-1.36717458073,-1.59988514766
3.5,-16.5806278939,-0.39754721851,8.6673912545
3.55,-16.4759081388,0.329673303154,3.85157535548
3.6,-16.4759081388,-0.135747830711,-0.608710510726
3.65,-16.5282680164,-0.0872664625997,0.500974137147
3.7,-16.4933614313,0.0775701889775,-0.199312291123
3.75,-16.4933614313,-0.135747830711,-0.188538653765
3.8,-16.5282680164,-0.0193925472444,0.861890988639
3.85,-16.4933614313,0.0581776417332,0.193925472444
3.9,-16.5108147239,-0.0387850944888,0.0915759175428
3.95,-16.5108147239,0.0678739153553,-0.102349554901
4,-16.4933614313,-0.00969627362219,-0.797249164491
4.05,-16.5108147239,-0.0872664625997,-0.204699109802
4.1,-16.5108147239,-0.0290888208666,0.366303670172
4.15,-16.5108147239,-0.00969627362219,0.296275027345
4.2,-16.5108147239,0,0.145444104333
4.25,-16.5108147239,0,0.032320912074
4.3,-16.5108147239,0,0.00538681867899
4.35,-16.5108147239,0,0
4.4,-16.5108147239,0,0
4.45,-16.5108147239,0,0
4.5,-16.5108147239,0,0
4.55,-16.5108147239,0,0
4.6,-16.5108147239,0,0
4.65,-16.5108147239,0,0
4.7,-16.5108147239,0,0
4.75,-16.5108147239,0,0
4.8,-16.5108147239,0,0
4.85,-16.5108147239,0,0
4.9,-16.5108147239,0,0
4.95,-16.5108147239,0,0
5,-16.5108147239,0,0
5.05,-16.5108147239,0,0
5.1,-16.5108147239,0,0
5.15,-16.5108147239,0,0
5.2,-16.5108147239,0,0
5.25,-16.5108147239,0,0
5.3,-16.5108147239,0,0
5.35,-16.5108147239,0,0
5.4,-16.5108147239,0,0
5.45,-16.5108147239,0,0
5.5,-16.5108147239,0,0
5.55,-16.5108147239,0,0
5.6,-16.5108147239,0,0
5.65,-16.5108147239,0,0
5.7,-16.5108147239,0,0
5.75,-16.5108147239,0,0
5.8,-16.5108147239,0,0
5.85,-16.5108147239,0,0
5.9,-16.5108147239,0,0
5.95,-16.5108147239,0,0
6,-16.5108147239,0,0
6.05,-16.5108147239,0,0
6.1,-16.5108147239,0,0
6.15,-16.5108147239,0,0
6.2,-16.5108147239,0,0
6.25,-16.5108147239,0,0
6.3,-16.5108147239,0,0
6.35,-16.5108147239,0,0
6.4,-16.5108147239,0,0
6.45,-16.5108147239,0,0
6.5,-16.5108147239,0,0
6.55,-16.5108147239,0,0
6.6,-16.5108147239,0,0
6.65,-16.5108147239,0,0
6.7,-16.5108147239,0,0
6.75,-16.5108147239,0,0
6.8,-16.5108147239,0,0
6.85,-16.5108147239,0,0
6.9,-16.5108147239,0,0
6.95,-16.5108147239,0,0
7,-16.5108147239,0,0
7.05,-16.5108147239,0,0
7.1,-16.5108147239,0,0
7.15,-16.5108147239,0,0
7.2,-16.5108147239,0,0
7.25,-16.5108147239,0,0
7.3,-16.5108147239,0,0
7.35,-16.5108147239,0,0
7.4,-16.5108147239,0,0
7.45,-16.5108147239,0,0
7.5,-16.5108147239,0,0
7.55,-16.5108147239,0,0
7.6,-16.5108147239,0,0
7.65,-16.5108147239,0,0
7.7,-16.5108147239,0,0
7.75,-16.5108147239,0,0
7.8,-16.5108147239,0,0
7.85,-16.5108147239,0,0
7.9,-16.5108147239,0,0
7.95,-16.5108147239,0,0
8,-16.5108147239,0,0
8.05,-16.5108147239,0,0
8.1,-16.5108147239,0,0
8.15,-16.5108147239,0,0
8.2,-16.5108147239,0,0
8.25,-16.5108147239,0,0
8.3,-16.5108147239,0,0
8.35,-16.5108147239,0,0
8.4,-16.5108147239,0,0
8.45,-16.5108147239,0,0
8.5,-16.5108147239,0,0
8.55,-16.5108147239,0,0
8.6,-16.5108147239,0,0
8.65,-16.5108147239,0,0
8.7,-16.5108147239,0,0
8.75,-16.5108147239,0,0
8.8,-16.5108147239,0,0
8.85,-16.5108147239,0,0
8.9,-16.5108147239,0,0
8.95,-16.5108147239,0,0
9,-16.5108147239,0,0
9.05,-16.5108147239,0,0
9.1,-16.5108147239,0,0
9.15,-16.5108147239,0,0
9.2,-16.5108147239,0,0
9.25,-16.5108147239,0,0
9.3,-16.5108147239,0,0
9.35,-16.5108147239,0,0
9.4,-16.5108147239,0,0
9.45,-16.5108147239,0,0
9.5,-16.5108147239,0,0
9.55,-16.5108147239,0,0
9.6,-16.5108147239,0,0
9.65,-16.5108147239,0,0
9.7,-16.5108147239,0,0
9.75,-16.5108147239,0,0
9.8,-16.5108147239,0,0
9.85,-16.5108147239,0,0
9.9,-16.5108147239,0,0
9.95,-16.5108147239,0,0
10,-16.5108147239,0,0
